# Data for gold-mf-teflon phi=0.05 - Drude model
#d(nm)  D=08nm  D=10nm  D=12nm  D=14nm  D=16nm  D=18nm


100000.	3.57385169165145e-15	2.9899554218183893e-15	2.0522961839465884e-15	3.833724025960384e-16	-2.1163623576891053e-15	-5.3868450829187684e-15
89125.0938133746	4.499212712603499e-15	3.7641308606588295e-15	2.5836878184984186e-15	4.826372598086894e-16	-2.6643423526595047e-15	-6.7816361642849325e-15
79432.82347242822	5.664173216963981e-15	4.738759993802162e-15	3.2526702508508883e-15	6.076043110519206e-16	-3.354208293482451e-15	-8.537574100760582e-15
70794.57843841374	7.130771599639906e-15	5.965745376591019e-15	4.094869234982965e-15	7.64928507498899e-16	-4.222698057115849e-15	-1.0748168990523318e-14
63095.73444801929	8.977109572486491e-15	7.510428454883664e-15	5.155134937894096e-15	9.629879362959508e-16	-5.3160618904372864e-15	-1.353114307242811e-14
56234.13251903491	1.1301511365264448e-14	9.455069235315333e-15	6.4899303745428725e-15	1.2123299842543747e-15	-6.692525404541733e-15	-1.703469986450222e-14
50118.72336272725	1.4227759849411867e-14	1.1903226930612093e-14	8.17033826928731e-15	1.5262330246579402e-15	-8.4253903008555e-15	-2.144541654170791e-14
44668.35921509626	1.7911688427329274e-14	1.4985274865300097e-14	1.028584647015999e-14	1.9214135390614235e-15	-1.0606937954031135e-14	-2.6998179850867273e-14
39810.7170553497	2.2549479729304606e-14	1.8865343330646427e-14	1.2949113503097888e-14	2.4189163308893856e-15	-1.3353343731653601e-14	-3.3988694686447705e-14
35481.338923357536	2.8388113053957674e-14	2.37500601211741e-14	1.6301968049255657e-14	3.0452352379606903e-15	-1.6810863756200267e-14	-4.278923145448137e-14
31622.776601683796	3.573851691651404e-14	2.989955421818328e-14	2.0522961839467078e-14	3.8337240259606105e-15	-2.116362357689119e-14	-5.386845082918776e-14
28183.82931264449	4.4992127126032465e-14	3.7641308606586555e-14	2.583687818498341e-14	4.826372598085485e-15	-2.6643423526595656e-14	-6.781636164285361e-14
25118.864315095823	5.66417321696433e-14	4.7387599938019694e-14	3.252670250851221e-14	6.0760431105191764e-15	-3.354208293482053e-14	-8.537574100760213e-14
22387.211385683422	7.130771599639759e-14	5.96574537659092e-14	4.094869234983041e-14	7.649285074988947e-15	-4.222698057115891e-14	-1.0748168990523124e-13
19952.62314968883	8.977109572486572e-14	7.510428454883949e-14	5.1551349378942546e-14	9.629879362961752e-15	-5.316061890437044e-14	-1.3531143072427792e-13
17782.79410038923	1.130151136526415e-13	9.455069235315338e-14	6.489930374542986e-14	1.2123299842543618e-14	-6.692525404541699e-14	-1.7034699864502235e-13
15848.93192461114	1.4227759849411909e-13	1.190322693061213e-13	8.170338269287302e-14	1.5262330246581157e-14	-8.425390300855126e-14	-2.1445416541708014e-13
14125.375446227556	1.7911688427329144e-13	1.498527486529976e-13	1.0285846470159612e-13	1.9214135390620085e-14	-1.0606937954030837e-13	-2.6998179850867475e-13
12589.254117941688	2.2549479729328916e-13	1.886534333067189e-13	1.2949113503122204e-13	2.418916330914462e-14	-1.3353343731629116e-13	-3.3988694686421347e-13
11220.18454301963	2.8388113055004414e-13	2.375006012221835e-13	1.630196805030177e-13	3.045235239006066e-14	-1.6810863755157176e-13	-4.2789231453434886e-13
10000.	3.573851694344523e-13	2.9899554245114013e-13	2.0522961866396966e-13	3.833724052892011e-14	-2.1163623549960373e-13	-5.386845080225653e-13
8912.509381337459	4.499212761833024e-13	3.7641309098883484e-13	2.5836878677280237e-13	4.8263730903823825e-14	-2.664342303429833e-13	-6.781636115055339e-13
7943.282347242822	5.664173881898306e-13	4.738760658736473e-13	3.252670915785206e-13	6.076049759862624e-14	-3.3542076285481054e-13	-8.537573435826187e-13
7079.457843841374	7.130778459652738e-13	5.965752236603888e-13	4.0948760949959583e-13	7.649353675117721e-14	-4.2226911971029164e-13	-1.074816213051042e-12
6309.573444801929	8.977165246315826e-13	7.510484128713092e-13	5.15519061172319e-13	9.630436101252135e-14	-5.316006216607888e-13	-1.3531087398598766e-12
5623.413251903491	1.1301876249894893e-12	9.45543411994614e-13	6.49029525917365e-13	1.2126948688850315e-13	-6.692160519910958e-13	-1.7034334979871363e-12
5011.872336272725	1.4229736838317026e-12	1.1905203919517236e-12	8.172315258192404e-13	1.5282100135634106e-13	-8.423413311950264e-13	-2.1443439552802925e-12
4466.835921509625	1.792073048365303e-12	1.499431692162406e-12	1.0294888526483565e-12	1.9304555953853219e-13	-1.059789589770711e-12	-2.6989137794543648e-12
3981.071705534969	2.2585046396394703e-12	1.8900909997737506e-12	1.2984680170188135e-12	2.4544829979804046e-13	-1.331777706456318e-12	-3.3953128019355453e-12
3548.133892335753	2.851045476218746e-12	2.387240182940183e-12	1.6424309757485923e-12	3.1675769461895166e-13	-1.6688522047971913e-12	-4.266688974625154e-12
3162.277660168379	3.611207315283267e-12	3.0273110454501772e-12	2.0896518075784045e-12	4.2072802622784707e-13	-2.0790067340572805e-12	-5.3494894592869455e-12
2818.3829312644493	4.601833784681731e-12	3.866751932737082e-12	2.6863088905767502e-12	5.852583318869007e-13	-2.5617212805812813e-12	-6.679015092206744e-12
2511.886431509582	5.920924603694417e-12	4.9955113805324166e-12	3.509421637581264e-12	8.643556977823042e-13	-3.0974569067520934e-12	-8.280822714030233e-12
2238.721138568342	7.722344724633464e-12	6.557318501584667e-12	4.68644235997669e-12	1.3565016324925178e-12	-3.6311249321221063e-12	-1.0156595865529603e-11
1995.262314968883	1.02451558439186e-11	8.778474726315726e-12	6.423181209326144e-12	2.231034207728036e-12	-4.048015619005012e-12	-1.2263096800995876e-11
1778.2794100389228	1.3853812404856392e-11	1.2007370274907925e-11	9.042231414135141e-12	3.764631023846557e-12	-4.140224364949377e-12	-1.4482398824909613e-11
1584.893192461114	1.9092785301875258e-11	1.676825238307515e-11	1.303536372175003e-11	6.391258477121649e-12	-3.560364848392023e-12	-1.6580391089244715e-11
1412.5375446227554	2.6761494984729267e-11	2.3835081422701215e-11	1.9135653027561276e-11	1.0771220096462894e-11	-1.7571313966295789e-12	-1.8148373293465917e-11
1258.9254117941687	3.8018712584257785e-11	3.4334576185599843e-11	2.841834635805104e-11	1.7888149185843344e-11	2.115889123299846e-12	-1.851946183149247e-11
1122.018454301963	5.4529773197994135e-11	4.9891720265208243e-11	4.244362819329227e-11	2.918689538199627e-11	9.330796387834767e-12	-1.664757131044519e-11
1000.	7.86752303431393e-11	7.283626764480889e-11	6.345967526609057e-11	4.677043745258505e-11	2.1773089849734105e-11	-1.0931737402562369e-11
891.2509381337459	1.1384651476985628e-10	1.064956962504094e-10	9.469126582880609e-11	7.368076024190779e-11	4.2210964117226605e-11	1.0380260009716414e-12
794.3282347242822	1.648636291056131e-10	1.5560949687399452e-10	1.407485994444821e-10	1.142979400464925e-10	7.467981400114852e-11	2.284615592836707e-11
707.9457843841374	2.3856307822694836e-10	2.269128159964606e-10	2.0820405458038054e-10	1.7490464730553833e-10	1.2502838165939183e-10	5.977367232531666e-11
630.957344480193	3.4462256975301924e-10	3.2995575857699194e-10	3.0640282340709485e-10	2.6448135339111457e-10	2.016908551237827e-10	1.1954004330387386e-10
562.341325190349	4.96714401589313e-10	4.782499802898258e-10	4.4859859168210037e-10	3.958225877792144e-10	3.1677403389125514e-10	2.1335228929164823e-10
501.1872336272725	7.14114375407024e-10	6.908690462190271e-10	6.535401596057813e-10	5.870991071594877e-10	4.875828739043532e-10	3.573826114958273e-10
446.68359215096257	1.0239408885171e-9	9.946767528968075e-10	9.476824689454078e-10	8.640381396344216e-10	7.387546247034963e-10	5.748422057351295e-10
398.1071705534969	1.4642640844958445e-9	1.427422720509275e-9	1.3682604222337723e-9	1.2629584505116915e-9	1.1052358498862611e-9	8.988823403383382e-10
354.8133892335753	2.08841366252965e-9	2.0420331332017886e-9	1.967552212482635e-9	1.8349848843696825e-9	1.6364238944280529e-9	1.3766402174452608e-9
316.2277660168379	2.9709342715797003e-9	2.912544644596392e-9	2.8187787208092334e-9	2.651886342674197e-9	2.4019128666457257e-9	2.0748645941227943e-9
281.8382931264449	4.215800107315659e-9	4.142291922121543e-9	4.024247617905163e-9	3.814142562036179e-9	3.499444600789362e-9	3.087715219626819e-9
251.18864315095823	5.967719543608857e-9	5.875178221292483e-9	5.726569246997369e-9	5.462062653017477e-9	5.0658813925640424e-9	4.547544811836227e-9
223.87211385683423	8.427654827814177e-9	8.311152205509292e-9	8.124064591348503e-9	7.791070518600079e-9	7.29230786213861e-9	6.6397607687978755e-9
199.5262314968883	1.1874074871089467e-8	1.1727406759329207e-8	1.149187740763023e-8	1.1072662707470425e-8	1.0444757724797125e-8	9.623249606598032e-9
177.82794100389228	1.6691981301516027e-8	1.650733708852113e-8	1.6210823202443897e-8	1.5683063163415028e-8	1.4892577624535435e-8	1.3858360178539384e-8
158.48931924611142	2.3412437217676345e-8	2.3179983925796355e-8	2.2806695059663888e-8	2.214228453520098e-8	2.1147122202649648e-8	1.9845119578564364e-8
141.25375446227554	3.276623115120613e-8	3.247358979500321e-8	3.200364695548919e-8	3.1167203662379353e-8	2.991436851307011e-8	2.8275244323386593e-8
125.89254117941661	4.5756481599948984e-8	4.5388067960083226e-8	4.479644497732837e-8	4.3743425260107536e-8	4.216619925385321e-8	4.010266415837392e-8
112.2018454301963	6.375649546422791e-8	6.329269017094931e-8	6.254788096375773e-8	6.122220768262818e-8	5.923659778321196e-8	5.663876101338402e-8
100.	8.864111076380632e-8	8.805721449397328e-8	8.711955525610147e-8	8.545063147475085e-8	8.295089671446579e-8	7.968041398923604e-8
